# MCCC calculations of H2 vibrational energy levels
# Reference: Scarlett et al., Atom. Data Nucl. Data Tables (2020)
# MCCC Database: mccc-db.org
# This file: vibrational level energies for the EF1Sg electronic state of H2
# v    Energy (Hartrees)  Energy (eV)  *** Asterisks denote wave functions located in the outer well ***
  0   -0.71252           -19.38860
  1   -0.71171           -19.36670 *
  2   -0.70627           -19.21860 *
  3   -0.70191           -19.10000
  4   -0.70109           -19.07750 *
  5   -0.69620           -18.94470 *
  6   -0.69268           -18.84880
  7   -0.69131           -18.81140 *
  8   -0.68739           -18.70490
  9   -0.68432           -18.62120
 10   -0.68148           -18.54410
 11   -0.67814           -18.45310
 12   -0.67485           -18.36350
 13   -0.67167           -18.27700
 14   -0.66848           -18.19040
 15   -0.66531           -18.10390
 16   -0.66219           -18.01920
 17   -0.65915           -17.93650
 18   -0.65618           -17.85550
 19   -0.65327           -17.77640
 20   -0.65044           -17.69930
 21   -0.64769           -17.62450
 22   -0.64503           -17.55210
 23   -0.64246           -17.48210
 24   -0.63998           -17.41470
 25   -0.63760           -17.35000
 26   -0.63533           -17.28830
 27   -0.63318           -17.22980
 28   -0.63117           -17.17510
 29   -0.62932           -17.12470
 30   -0.62768           -17.07990
 31   -0.62630           -17.04250
 32   -0.62532           -17.01580
