# MCCC calculations of D2 vibrational energy levels
# Reference: Scarlett et al., Atom. Data Nucl. Data Tables (2021)
# MCCC Database: mccc-db.org
# This file: vibrational level energies for the H1Sg electronic state of D2
# v    Energy (Hartrees)  Energy (eV)  *** Asterisks denote wave functions located in the outer well ***
  0   -0.65117           -17.71930
  1   -0.64386           -17.52020
  2   -0.63694           -17.33200
  3   -0.63057           -17.15860
  4   -0.62485           -17.00300
  5   -0.61950           -16.85750
  6   -0.61433           -16.71680
  7   -0.60943           -16.58330
  8   -0.60479           -16.45710 *
  9   -0.60478           -16.45700
 10   -0.60364           -16.42600 *
 11   -0.60248           -16.39420 *
 12   -0.60133           -16.36300 *
 13   -0.60043           -16.33850
 14   -0.60022           -16.33280 *
 15   -0.59915           -16.30380 *
 16   -0.59811           -16.27540 *
 17   -0.59710           -16.24800 *
 18   -0.59638           -16.22830
 19   -0.59612           -16.22120 *
 20   -0.59516           -16.19510 *
 21   -0.59422           -16.16970 *
 22   -0.59331           -16.14480 *
 23   -0.59265           -16.12690
 24   -0.59242           -16.12050 *
 25   -0.59154           -16.09670 *
 26   -0.59068           -16.07330 *
 27   -0.58984           -16.05040 *
 28   -0.58928           -16.03520
 29   -0.58902           -16.02800 *
 30   -0.58821           -16.00600 *
 31   -0.58742           -15.98440 *
 32   -0.58664           -15.96330 *
 33   -0.58632           -15.95460
 34   -0.58588           -15.94270 *
 35   -0.58515           -15.92270 *
 36   -0.58444           -15.90340 *
 37   -0.58395           -15.89000
 38   -0.58371           -15.88360
 39   -0.58309           -15.86670
 40   -0.58253           -15.85150
 41   -0.58204           -15.83810
 42   -0.58153           -15.82410
 43   -0.58098           -15.80920
 44   -0.58043           -15.79420
 45   -0.57988           -15.77930
 46   -0.57933           -15.76430
 47   -0.57878           -15.74930
 48   -0.57823           -15.73430
 49   -0.57768           -15.71940
 50   -0.57713           -15.70450
 51   -0.57658           -15.68960
 52   -0.57604           -15.67480
 53   -0.57550           -15.66020
 54   -0.57496           -15.64560
 55   -0.57443           -15.63110
 56   -0.57391           -15.61680
 57   -0.57338           -15.60250
 58   -0.57286           -15.58840
 59   -0.57235           -15.57450
 60   -0.57184           -15.56060
 61   -0.57134           -15.54700
 62   -0.57084           -15.53340
 63   -0.57035           -15.52000
 64   -0.56986           -15.50680
 65   -0.56938           -15.49370
 66   -0.56891           -15.48080
 67   -0.56844           -15.46800
 68   -0.56798           -15.45540
 69   -0.56752           -15.44290
 70   -0.56706           -15.43060
 71   -0.56662           -15.41850
 72   -0.56618           -15.40650
 73   -0.56574           -15.39460
 74   -0.56531           -15.38290
 75   -0.56489           -15.37140
 76   -0.56447           -15.36000
 77   -0.56406           -15.34880
 78   -0.56365           -15.33770
 79   -0.56325           -15.32680
 80   -0.56285           -15.31610
 81   -0.56246           -15.30540
 82   -0.56208           -15.29500
 83   -0.56170           -15.28470
 84   -0.56133           -15.27450
 85   -0.56096           -15.26440
 86   -0.56059           -15.25450
 87   -0.56024           -15.24480
 88   -0.55988           -15.23520
 89   -0.55953           -15.22570
 90   -0.55919           -15.21640
 91   -0.55885           -15.20720
 92   -0.55852           -15.19810
 93   -0.55819           -15.18910
 94   -0.55787           -15.18030
 95   -0.55755           -15.17160
 96   -0.55723           -15.16310
 97   -0.55692           -15.15460
 98   -0.55662           -15.14630
 99   -0.55632           -15.13820
 100   -0.55603           -15.13020
 101   -0.55575           -15.12270
